# data  : SrO  model compound; transmission only 10 degrees K
# chi: from skey ASCII of ../xmu/SrO012.xmu
# using simple minimization
# e0 = 16143.70; pre-edge range =[   -50.0  -200.0]; edge step =  0.836
# k range=[  0.00 15.00]; k weight=  2.00; sills  dk1, dk2  =  0.00  0.00
# bkg r =[  0.00  1.04];    9 knots in spline
# SrO  model compound; transmission only 10 degrees K
# SrCO3 model in front of I2 as calib.
# 50% detuned at 17,000 eV;
# N2+Ar in I0 and I1; Ar in I2
# exafs scan to K=15; modified regions file
# SSRL - EXAFS Data Collector 1.1  Fri Jun 16 02:32:00 1995
# PTS: 331 COLS: 6  TRANS.DET  SRK15.RGN
# 4-3 UNFOCUSED  1.788 -8 Si(220) 1.920128     4000  4 2000 25 RST 0 0
# MVIEW Version 1.1   SR_016.002
# >> /usr/people/newville/bin/XMU -e4 -05 -t6 -r7 -f8 ascii/sr016_002.dat
# ----------------------------------------------------------------------
#     k              chi(k)          
  0.5000000E-01   0.1095355E+00
  0.1000000E+00   0.1069954E+00
  0.1500000E+00   0.1044553E+00
  0.2000000E+00   0.1019151E+00
  0.2500000E+00   0.9937499E-01
  0.3000000E+00   0.9683486E-01
  0.3500000E+00   0.9429473E-01
  0.4000000E+00   0.9175459E-01
  0.4500000E+00   0.8921446E-01
  0.5000000E+00   0.8667433E-01
  0.5500000E+00   0.8413419E-01
  0.6000000E+00   0.1036340E+00
  0.6500000E+00   0.1261702E+00
  0.7000000E+00   0.1487065E+00
  0.7500000E+00   0.1693243E+00
  0.8000000E+00   0.1769185E+00
  0.8500000E+00   0.1845128E+00
  0.9000000E+00   0.1921071E+00
  0.9500000E+00   0.1992324E+00
  0.1000000E+01   0.1892861E+00
  0.1050000E+01   0.1793399E+00
  0.1100000E+01   0.1693937E+00
  0.1150000E+01   0.1545492E+00
  0.1200000E+01   0.1368810E+00
  0.1250000E+01   0.1196792E+00
  0.1300000E+01   0.1029699E+00
  0.1350000E+01   0.8626056E-01
  0.1400000E+01   0.7337552E-01
  0.1450000E+01   0.6174133E-01
  0.1500000E+01   0.5063396E-01
  0.1550000E+01   0.4101825E-01
  0.1600000E+01   0.3159899E-01
  0.1650000E+01   0.2231159E-01
  0.1700000E+01   0.1367821E-01
  0.1750000E+01   0.5819267E-02
  0.1800000E+01   -.2428305E-02
  0.1850000E+01   -.1052786E-01
  0.1900000E+01   -.1868292E-01
  0.1950000E+01   -.2675180E-01
  0.2000000E+01   -.3442618E-01
  0.2050000E+01   -.4257021E-01
  0.2100000E+01   -.5224095E-01
  0.2150000E+01   -.6387687E-01
  0.2200000E+01   -.7576828E-01
  0.2250000E+01   -.8606879E-01
  0.2300000E+01   -.9425925E-01
  0.2350000E+01   -.9875587E-01
  0.2400000E+01   -.9866628E-01
  0.2450000E+01   -.9520207E-01
  0.2500000E+01   -.8933593E-01
  0.2550000E+01   -.8264226E-01
  0.2600000E+01   -.7469952E-01
  0.2650000E+01   -.6549146E-01
  0.2700000E+01   -.5581484E-01
  0.2750000E+01   -.4370813E-01
  0.2800000E+01   -.2893397E-01
  0.2850000E+01   -.1116197E-01
  0.2900000E+01   0.8369662E-02
  0.2950000E+01   0.2786265E-01
  0.3000000E+01   0.4568594E-01
  0.3050000E+01   0.6360021E-01
  0.3100000E+01   0.7888483E-01
  0.3150000E+01   0.8972627E-01
  0.3200000E+01   0.9594481E-01
  0.3250000E+01   0.9547031E-01
  0.3300000E+01   0.8752042E-01
  0.3350000E+01   0.7278342E-01
  0.3400000E+01   0.5686835E-01
  0.3450000E+01   0.4261157E-01
  0.3500000E+01   0.3256558E-01
  0.3550000E+01   0.2648905E-01
  0.3600000E+01   0.2333796E-01
  0.3650000E+01   0.2070465E-01
  0.3700000E+01   0.1755333E-01
  0.3750000E+01   0.1300682E-01
  0.3800000E+01   0.6118944E-02
  0.3850000E+01   -.2036300E-02
  0.3900000E+01   -.1174895E-01
  0.3950000E+01   -.2250603E-01
  0.4000000E+01   -.3112309E-01
  0.4050000E+01   -.3740213E-01
  0.4100000E+01   -.4057436E-01
  0.4150000E+01   -.4111594E-01
  0.4200000E+01   -.3891221E-01
  0.4250000E+01   -.3608498E-01
  0.4300000E+01   -.3389830E-01
  0.4350000E+01   -.3270171E-01
  0.4400000E+01   -.3130938E-01
  0.4450000E+01   -.2813224E-01
  0.4500000E+01   -.2226327E-01
  0.4550000E+01   -.1383453E-01
  0.4600000E+01   -.3883668E-02
  0.4650000E+01   0.5994573E-02
  0.4700000E+01   0.1373007E-01
  0.4750000E+01   0.1796561E-01
  0.4800000E+01   0.1741955E-01
  0.4850000E+01   0.1424922E-01
  0.4900000E+01   0.1123680E-01
  0.4950000E+01   0.1143872E-01
  0.5000000E+01   0.1532667E-01
  0.5050000E+01   0.2148371E-01
  0.5100000E+01   0.2633631E-01
  0.5150000E+01   0.2817763E-01
  0.5200000E+01   0.2587143E-01
  0.5250000E+01   0.1963387E-01
  0.5300000E+01   0.1120257E-01
  0.5350000E+01   0.2717038E-02
  0.5400000E+01   -.4799447E-02
  0.5450000E+01   -.1126074E-01
  0.5500000E+01   -.1641136E-01
  0.5550000E+01   -.1976413E-01
  0.5600000E+01   -.2087382E-01
  0.5650000E+01   -.2040923E-01
  0.5700000E+01   -.1836717E-01
  0.5750000E+01   -.1560709E-01
  0.5800000E+01   -.1307025E-01
  0.5850000E+01   -.1124063E-01
  0.5900000E+01   -.9979338E-02
  0.5950000E+01   -.8387668E-02
  0.6000000E+01   -.6143631E-02
  0.6050000E+01   -.3423606E-02
  0.6100000E+01   -.2738123E-03
  0.6150000E+01   0.2027699E-02
  0.6200000E+01   0.2192213E-02
  0.6250000E+01   0.7743672E-03
  0.6300000E+01   0.6612235E-03
  0.6350000E+01   0.3905515E-02
  0.6400000E+01   0.9584642E-02
  0.6450000E+01   0.1350598E-01
  0.6500000E+01   0.1318381E-01
  0.6550000E+01   0.9461661E-02
  0.6600000E+01   0.3937942E-02
  0.6650000E+01   -.1647093E-02
  0.6700000E+01   -.5840468E-02
  0.6750000E+01   -.6608285E-02
  0.6800000E+01   -.3819030E-02
  0.6850000E+01   0.2025717E-02
  0.6900000E+01   0.8250489E-02
  0.6950000E+01   0.1266222E-01
  0.7000000E+01   0.1410859E-01
  0.7050000E+01   0.1358894E-01
  0.7100000E+01   0.1153799E-01
  0.7150000E+01   0.8218643E-02
  0.7200000E+01   0.4102208E-02
  0.7250000E+01   -.1231174E-03
  0.7300000E+01   -.3703557E-02
  0.7350000E+01   -.6652551E-02
  0.7400000E+01   -.9799071E-02
  0.7450000E+01   -.1311267E-01
  0.7500000E+01   -.1595615E-01
  0.7550000E+01   -.1711900E-01
  0.7600000E+01   -.1513167E-01
  0.7650000E+01   -.9926587E-02
  0.7700000E+01   -.3524886E-02
  0.7750000E+01   0.2029869E-02
  0.7800000E+01   0.6307843E-02
  0.7850000E+01   0.1002338E-01
  0.7900000E+01   0.1310629E-01
  0.7950000E+01   0.1565631E-01
  0.8000000E+01   0.1682506E-01
  0.8050000E+01   0.1486664E-01
  0.8100000E+01   0.8837403E-02
  0.8150001E+01   0.1833058E-02
  0.8200000E+01   -.3073461E-02
  0.8250000E+01   -.4816797E-02
  0.8300000E+01   -.4536452E-02
  0.8350000E+01   -.3470849E-02
  0.8400001E+01   -.3308690E-02
  0.8450000E+01   -.4577390E-02
  0.8500000E+01   -.7157634E-02
  0.8550000E+01   -.9999945E-02
  0.8600000E+01   -.1075159E-01
  0.8650001E+01   -.8495539E-02
  0.8700000E+01   -.5398340E-02
  0.8750000E+01   -.2290333E-02
  0.8800000E+01   0.7217229E-03
  0.8850000E+01   0.3839411E-02
  0.8900001E+01   0.6238585E-02
  0.8950000E+01   0.7085177E-02
  0.9000000E+01   0.6898451E-02
  0.9050000E+01   0.6844740E-02
  0.9100000E+01   0.6573103E-02
  0.9150001E+01   0.4554484E-02
  0.9200000E+01   0.3817070E-03
  0.9250000E+01   -.3918004E-02
  0.9300000E+01   -.6402232E-02
  0.9350000E+01   -.7210661E-02
  0.9400001E+01   -.6844061E-02
  0.9450000E+01   -.6661248E-02
  0.9500000E+01   -.7208294E-02
  0.9550000E+01   -.7009259E-02
  0.9600000E+01   -.4936737E-02
  0.9650001E+01   -.9168765E-03
  0.9700000E+01   0.4302424E-02
  0.9750000E+01   0.9546191E-02
  0.9800000E+01   0.1236071E-01
  0.9850000E+01   0.1069818E-01
  0.9900001E+01   0.6970373E-02
  0.9950000E+01   0.3909738E-02
  0.1000000E+02   0.1866206E-02
  0.1005000E+02   0.7192576E-03
  0.1010000E+02   0.3087604E-03
  0.1015000E+02   -.2889026E-03
  0.1020000E+02   -.3377699E-02
  0.1025000E+02   -.6774924E-02
  0.1030000E+02   -.8117777E-02
  0.1035000E+02   -.7409093E-02
  0.1040000E+02   -.5498887E-02
  0.1045000E+02   -.4486432E-02
  0.1050000E+02   -.3522243E-02
  0.1055000E+02   -.1986857E-02
  0.1060000E+02   0.6210066E-03
  0.1065000E+02   0.4283003E-02
  0.1070000E+02   0.7147471E-02
  0.1075000E+02   0.7521267E-02
  0.1080000E+02   0.6076628E-02
  0.1085000E+02   0.3206020E-02
  0.1090000E+02   0.4701328E-03
  0.1095000E+02   -.9409814E-03
  0.1100000E+02   -.1068599E-02
  0.1105000E+02   0.3700311E-03
  0.1110000E+02   0.1897992E-02
  0.1115000E+02   0.2301604E-02
  0.1120000E+02   0.1291839E-02
  0.1125000E+02   -.6755504E-03
  0.1130000E+02   -.3491007E-02
  0.1135000E+02   -.5152704E-02
  0.1140000E+02   -.5594411E-02
  0.1145000E+02   -.5548870E-02
  0.1150000E+02   -.4825286E-02
  0.1155000E+02   -.2789374E-02
  0.1160000E+02   0.5603549E-03
  0.1165000E+02   0.3975984E-02
  0.1170000E+02   0.5890186E-02
  0.1175000E+02   0.6213336E-02
  0.1180000E+02   0.5481412E-02
  0.1185000E+02   0.3382888E-02
  0.1190000E+02   0.3357902E-03
  0.1195000E+02   -.1626816E-02
  0.1200000E+02   -.1999436E-02
  0.1205000E+02   -.1907986E-02
  0.1210000E+02   -.1481728E-02
  0.1215000E+02   -.8123760E-03
  0.1220000E+02   -.5247087E-03
  0.1225000E+02   -.2734763E-02
  0.1230000E+02   -.3504512E-02
  0.1235000E+02   -.2676369E-02
  0.1240000E+02   -.9809593E-03
  0.1245000E+02   0.1388566E-02
  0.1250000E+02   0.2939182E-02
  0.1255000E+02   0.3240629E-02
  0.1260000E+02   0.1944648E-02
  0.1265000E+02   0.9288795E-03
  0.1270000E+02   0.1022591E-02
  0.1275000E+02   0.1651199E-02
  0.1280000E+02   0.2029809E-02
  0.1285000E+02   0.1220536E-02
  0.1290000E+02   0.3141769E-03
  0.1295000E+02   -.4569719E-03
  0.1300000E+02   -.1375641E-02
  0.1305000E+02   -.2106114E-02
  0.1310000E+02   -.2238453E-02
  0.1315000E+02   -.1472720E-02
  0.1320000E+02   -.9016598E-03
  0.1325000E+02   -.1443536E-02
  0.1330000E+02   -.1716341E-02
  0.1335000E+02   -.1000265E-02
  0.1340000E+02   0.3435071E-03
  0.1345000E+02   0.8998289E-03
  0.1350000E+02   0.3314834E-03
  0.1355000E+02   -.6324931E-03
  0.1360000E+02   -.8193041E-03
  0.1365000E+02   0.3057924E-03
  0.1370000E+02   0.1946148E-02
  0.1375000E+02   0.3112783E-02
  0.1380000E+02   0.3131789E-02
  0.1385000E+02   0.1756297E-02
  0.1390000E+02   0.2062137E-03
  0.1395000E+02   -.6856614E-03
  0.1400000E+02   -.1541802E-02
  0.1405000E+02   -.2948725E-02
  0.1410000E+02   -.3849131E-02
  0.1415000E+02   -.3369786E-02
  0.1420000E+02   -.2110803E-02
  0.1425000E+02   0.3676330E-04
  0.1430000E+02   0.1470877E-02
  0.1435000E+02   0.1606900E-02
  0.1440000E+02   0.1194637E-02
  0.1445000E+02   0.1516864E-02
  0.1450000E+02   0.2006741E-02
  0.1455000E+02   0.1695033E-02
  0.1460000E+02   0.9709552E-03
  0.1465000E+02   0.2272290E-03
  0.1470000E+02   0.3285513E-03
  0.1475000E+02   0.7283891E-03
  0.1480000E+02   0.1261087E-03
  0.1485000E+02   -.6284324E-03
  0.1490000E+02   -.4952581E-03
  0.1495000E+02   0.0000000E+00
