# data  : cu 50k, e0=8980, with standard                                      
# chi: skey ASCII of cu_050k.dat  using skey ASCII of chi.dat                  
# e0 =  8982.61; pre-edge range =[   -50.0  -200.0]; edge step =  2.248        
# k range=[   .05 24.95]; k weight=  1.00; sills: dk1, dk2=[   .00   .00]      
# bkg r =[   .00   .98]; 1st shell r =[   .98  3.93];  15 knots in spline      
# Cu foil, 50K, foil rolled and annealled by matt                              
# 2-SI111 HC/2D= 1977.260 STPDEG=6400. STPMMZ= 40. FOCUS=F TRANSLT=F           
# E0= 8980.0 NREG= 3 NPTS= 619 NSCLRS= 3 EF=     .0                            
# SRB=   -197.6    -47.3     30.0   2381.3                                     
# DEL=           10.020     .483     .050K                                     
# SEC=             1.000    1.000    1.000                                     
# DETECTORSI0      I       If                                                  
# GAINS           8       7      10                                            
# OFFSETS     51284   50016   48319                                            
#---------------------------------------------------------------------
#     k              chi(k)   
   .5000000E-01   -.1373473E+00
   .1000000E+00   -.1385472E+00
   .1500000E+00   -.1398657E+00
   .2000000E+00   -.1413027E+00
   .2500000E+00   -.1428583E+00
   .3000000E+00   -.1443107E+00
   .3500000E+00   -.1457293E+00
   .4000000E+00   -.1476968E+00
   .4500000E+00   -.1502134E+00
   .5000000E+00   -.1532307E+00
   .5500000E+00   -.1568598E+00
   .6000000E+00   -.1615738E+00
   .6500000E+00   -.1664501E+00
   .7000000E+00   -.1718158E+00
   .7500000E+00   -.1750129E+00
   .8000000E+00   -.1716824E+00
   .8500000E+00   -.1708404E+00
   .9000000E+00   -.1728317E+00
   .9500000E+00   -.1685513E+00
   .1000000E+01   -.1605603E+00
   .1050000E+01   -.1455110E+00
   .1100000E+01   -.1199707E+00
   .1150000E+01   -.1025738E+00
   .1200000E+01   -.7100126E-01
   .1250000E+01   -.3401849E-01
   .1300000E+01   -.7703021E-02
   .1350000E+01    .2221577E-01
   .1400000E+01    .5599108E-01
   .1450000E+01    .9266981E-01
   .1500000E+01    .1163086E+00
   .1550000E+01    .1289929E+00
   .1600000E+01    .1214348E+00
   .1650000E+01    .1053480E+00
   .1700000E+01    .7923283E-01
   .1750000E+01    .5306172E-01
   .1800000E+01    .2583850E-01
   .1850000E+01    .3294227E-02
   .1900000E+01   -.8806702E-02
   .1950000E+01   -.1317449E-01
   .2000000E+01   -.3594001E-02
   .2050000E+01    .2597370E-01
   .2100000E+01    .5995317E-01
   .2150000E+01    .9102094E-01
   .2200000E+01    .1173967E+00
   .2250000E+01    .1149577E+00
   .2300000E+01    .9021449E-01
   .2350000E+01    .6235322E-01
   .2400000E+01    .2444875E-01
   .2450000E+01   -.2467035E-02
   .2500000E+01   -.2543914E-01
   .2550000E+01   -.4734573E-01
   .2600000E+01   -.6765157E-01
   .2650000E+01   -.8067265E-01
   .2700000E+01   -.8198205E-01
   .2750000E+01   -.7857785E-01
   .2800000E+01   -.7157140E-01
   .2850000E+01   -.6234511E-01
   .2900000E+01   -.4846246E-01
   .2950000E+01   -.2719917E-01
   .3000000E+01   -.7924671E-02
   .3050000E+01    .9703336E-02
   .3100000E+01    .3347130E-01
   .3150000E+01    .5676650E-01
   .3200000E+01    .7545155E-01
   .3250000E+01    .8961082E-01
   .3300000E+01    .9154496E-01
   .3350000E+01    .7784574E-01
   .3400000E+01    .5306018E-01
   .3450000E+01    .2688404E-01
   .3500000E+01   -.3561511E-02
   .3550000E+01   -.2724013E-01
   .3600000E+01   -.4410691E-01
   .3650000E+01   -.5592334E-01
   .3700000E+01   -.6023212E-01
   .3750000E+01   -.5781109E-01
   .3800000E+01   -.4887229E-01
   .3850000E+01   -.3850289E-01
   .3900000E+01   -.3329436E-01
   .3950000E+01   -.3559315E-01
   .4000000E+01   -.4065252E-01
   .4050000E+01   -.4079034E-01
   .4100000E+01   -.3181073E-01
   .4150000E+01   -.1874843E-01
   .4200000E+01   -.1140777E-01
   .4250000E+01   -.1178031E-01
   .4300000E+01   -.1290270E-01
   .4350000E+01   -.7175583E-02
   .4400000E+01    .5326905E-02
   .4450000E+01    .1914873E-01
   .4500000E+01    .2941122E-01
   .4550000E+01    .3725428E-01
   .4600000E+01    .4591906E-01
   .4650000E+01    .5832948E-01
   .4700000E+01    .7390428E-01
   .4750000E+01    .8886880E-01
   .4800000E+01    .9750342E-01
   .4850000E+01    .9526309E-01
   .4900000E+01    .8111326E-01
   .4950000E+01    .5558423E-01
   .5000000E+01    .2708264E-01
   .5050000E+01    .4339289E-02
   .5100000E+01   -.1462341E-01
   .5150000E+01   -.2958837E-01
   .5200000E+01   -.3554603E-01
   .5250000E+01   -.3801666E-01
   .5300000E+01   -.5043939E-01
   .5350000E+01   -.7286413E-01
   .5400000E+01   -.9323197E-01
   .5450000E+01   -.1062440E+00
   .5500000E+01   -.1070004E+00
   .5550000E+01   -.9624653E-01
   .5600000E+01   -.7863387E-01
   .5650000E+01   -.5688295E-01
   .5700000E+01   -.3263235E-01
   .5750000E+01   -.1028414E-01
   .5800000E+01    .3763798E-02
   .5850000E+01    .6896460E-02
   .5900000E+01    .8064627E-03
   .5950000E+01   -.6244273E-02
   .6000000E+01   -.7247293E-02
   .6050000E+01    .1207384E-01
   .6100000E+01    .5601417E-01
   .6150000E+01    .1104234E+00
   .6200000E+01    .1389394E+00
   .6250000E+01    .1419614E+00
   .6300000E+01    .1307840E+00
   .6350000E+01    .1193851E+00
   .6400000E+01    .1058628E+00
   .6450000E+01    .8090971E-01
   .6500000E+01    .4659121E-01
   .6550000E+01    .3797703E-02
   .6600000E+01   -.4153408E-01
   .6650000E+01   -.8694696E-01
   .6700000E+01   -.1263851E+00
   .6750000E+01   -.1517921E+00
   .6800000E+01   -.1560270E+00
   .6850000E+01   -.1362077E+00
   .6900000E+01   -.9869526E-01
   .6950000E+01   -.5368800E-01
   .7000000E+01   -.8738148E-02
   .7050000E+01    .2223615E-01
   .7100000E+01    .4072504E-01
   .7150000E+01    .4175277E-01
   .7200000E+01    .2756912E-01
   .7250000E+01    .1345060E-01
   .7300000E+01    .6300341E-02
   .7350000E+01    .4635387E-02
   .7400000E+01   -.4577389E-02
   .7450000E+01   -.2054773E-01
   .7500000E+01   -.2609746E-01
   .7550000E+01   -.8816606E-02
   .7600000E+01    .3158759E-01
   .7650000E+01    .7690071E-01
   .7700000E+01    .9722703E-01
   .7750000E+01    .1026873E+00
   .7800000E+01    .9917620E-01
   .7850000E+01    .8579698E-01
   .7900000E+01    .5750833E-01
   .7950000E+01    .1944776E-01
   .8000000E+01   -.1806754E-01
   .8050000E+01   -.4774115E-01
   .8100000E+01   -.6659779E-01
   .8150001E+01   -.7596388E-01
   .8200000E+01   -.7467979E-01
   .8250000E+01   -.6097168E-01
   .8300000E+01   -.4798817E-01
   .8350000E+01   -.4472952E-01
   .8400001E+01   -.4112409E-01
   .8450000E+01   -.3612401E-01
   .8500000E+01   -.3281989E-01
   .8550000E+01   -.2598775E-01
   .8600000E+01   -.1173270E-01
   .8650001E+01    .3144266E-02
   .8700000E+01    .1479400E-01
   .8750000E+01    .2230675E-01
   .8800000E+01    .2574294E-01
   .8850000E+01    .2685795E-01
   .8900001E+01    .3157799E-01
   .8950000E+01    .3893869E-01
   .9000000E+01    .4860476E-01
   .9050000E+01    .5929116E-01
   .9100000E+01    .5721494E-01
   .9150001E+01    .4178312E-01
   .9200000E+01    .2432500E-01
   .9250000E+01    .5509154E-02
   .9300000E+01   -.1325202E-01
   .9350000E+01   -.2435435E-01
   .9400001E+01   -.2391623E-01
   .9450000E+01   -.1511056E-01
   .9500000E+01   -.5081474E-02
   .9550000E+01   -.4374009E-02
   .9600000E+01   -.1561357E-01
   .9650001E+01   -.3548410E-01
   .9700000E+01   -.4914499E-01
   .9750000E+01   -.4318584E-01
   .9800000E+01   -.2968230E-01
   .9850000E+01   -.2469065E-01
   .9900001E+01   -.1969492E-01
   .9950000E+01   -.1107137E-01
   .1000000E+02   -.4422685E-02
   .1005000E+02    .1068100E-02
   .1010000E+02    .6973122E-02
   .1015000E+02    .1239259E-01
   .1020000E+02    .1788531E-01
   .1025000E+02    .2242973E-01
   .1030000E+02    .2571689E-01
   .1035000E+02    .2850609E-01
   .1040000E+02    .3124149E-01
   .1045000E+02    .3268456E-01
   .1050000E+02    .2988279E-01
   .1055000E+02    .2046726E-01
   .1060000E+02    .5816531E-02
   .1065000E+02   -.9172712E-02
   .1070000E+02   -.1698523E-01
   .1075000E+02   -.1735701E-01
   .1080000E+02   -.1298274E-01
   .1085000E+02   -.5189053E-02
   .1090000E+02    .1887026E-02
   .1095000E+02    .4691814E-02
   .1100000E+02    .2783815E-02
   .1105000E+02   -.5220474E-02
   .1110000E+02   -.1626420E-01
   .1115000E+02   -.2080086E-01
   .1120000E+02   -.1688000E-01
   .1125000E+02   -.1399821E-01
   .1130000E+02   -.1624259E-01
   .1135000E+02   -.1818730E-01
   .1140000E+02   -.1771323E-01
   .1145000E+02   -.1376355E-01
   .1150000E+02   -.6419456E-02
   .1155000E+02    .1407835E-02
   .1160000E+02    .9180414E-02
   .1165000E+02    .1886954E-01
   .1170000E+02    .2857201E-01
   .1175000E+02    .3522836E-01
   .1180000E+02    .3683194E-01
   .1185000E+02    .3221991E-01
   .1190000E+02    .1902697E-01
   .1195000E+02    .1576702E-02
   .1200000E+02   -.9702088E-02
   .1205000E+02   -.1288875E-01
   .1210000E+02   -.1240199E-01
   .1215000E+02   -.1145821E-01
   .1220000E+02   -.9862226E-02
   .1225000E+02   -.6681990E-02
   .1230000E+02   -.3514326E-02
   .1235000E+02   -.3075248E-02
   .1240000E+02   -.3710755E-02
   .1245000E+02   -.3338058E-02
   .1250000E+02   -.3465846E-02
   .1255000E+02   -.7339295E-02
   .1260000E+02   -.1087871E-01
   .1265000E+02   -.1057986E-01
   .1270000E+02   -.9330069E-02
   .1275000E+02   -.6534229E-02
   .1280000E+02   -.2584970E-02
   .1285000E+02   -.1576561E-03
   .1290000E+02    .1246487E-02
   .1295000E+02    .4078683E-02
   .1300000E+02    .9126237E-02
   .1305000E+02    .1231163E-01
   .1310000E+02    .1206880E-01
   .1315000E+02    .1033724E-01
   .1320000E+02    .8214359E-02
   .1325000E+02    .7031883E-02
   .1330000E+02    .5864553E-02
   .1335000E+02    .2576723E-02
   .1340000E+02   -.9329307E-03
   .1345000E+02   -.2637290E-02
   .1350000E+02   -.3093108E-02
   .1355000E+02   -.1859079E-02
   .1360000E+02   -.9202274E-03
   .1365000E+02   -.3059452E-02
   .1370000E+02   -.4690180E-02
   .1375000E+02   -.3764999E-02
   .1380000E+02   -.2833592E-02
   .1385000E+02   -.3758422E-02
   .1390000E+02   -.5215503E-02
   .1395000E+02   -.5547415E-02
   .1400000E+02   -.6669331E-02
   .1405000E+02   -.7083325E-02
   .1410000E+02   -.5135714E-02
   .1415000E+02   -.2619548E-02
   .1420000E+02    .1328048E-02
   .1425000E+02    .4703346E-02
   .1430000E+02    .6110589E-02
   .1435000E+02    .7035083E-02
   .1440000E+02    .6671266E-02
   .1445000E+02    .3940825E-02
   .1450000E+02    .7525507E-03
   .1455000E+02    .1286608E-03
   .1460000E+02    .1784026E-02
   .1465000E+02    .3632162E-02
   .1470000E+02    .5066263E-02
   .1475000E+02    .5591076E-02
   .1480000E+02    .3876101E-02
   .1485000E+02    .1102979E-02
   .1490000E+02   -.1354840E-02
   .1495000E+02   -.3213777E-02
   .1500000E+02   -.3660755E-02
   .1505000E+02   -.3366165E-02
   .1510000E+02   -.3611137E-02
   .1515000E+02   -.3916792E-02
   .1520000E+02   -.4004172E-02
   .1525000E+02   -.4134214E-02
   .1530000E+02   -.3439074E-02
   .1535000E+02   -.2717305E-02
   .1540000E+02   -.2476060E-02
   .1545000E+02   -.1133123E-02
   .1550000E+02    .1047500E-02
   .1555000E+02    .2703721E-02
   .1560000E+02    .3508135E-02
   .1565000E+02    .3593689E-02
   .1570000E+02    .3246494E-02
   .1575000E+02    .2855977E-02
   .1580000E+02    .2712670E-02
   .1585000E+02    .2417940E-02
   .1590000E+02    .1345247E-02
   .1595000E+02    .1631669E-03
   .1600000E+02   -.4393835E-03
   .1605000E+02   -.3340441E-03
   .1610000E+02    .4026809E-03
   .1615000E+02    .1402345E-02
   .1620000E+02    .1255677E-02
   .1625000E+02    .7098880E-04
   .1630000E+02    .1113958E-03
   .1635000E+02    .3648766E-03
   .1640000E+02   -.3832370E-03
   .1645000E+02   -.1355616E-02
   .1650000E+02   -.2083110E-02
   .1655000E+02   -.2271540E-02
   .1660000E+02   -.2345033E-02
   .1665000E+02   -.2755243E-02
   .1670000E+02   -.2981608E-02
   .1675000E+02   -.2658683E-02
   .1680000E+02   -.1490564E-02
   .1685000E+02    .6767939E-03
   .1690000E+02    .2141647E-02
   .1695000E+02    .2470854E-02
   .1700000E+02    .2133694E-02
   .1705000E+02    .1723372E-02
   .1710000E+02    .1801946E-02
   .1715000E+02    .1651682E-02
   .1720000E+02    .1194434E-02
   .1725000E+02    .5769385E-03
   .1730000E+02    .1161263E-04
   .1735000E+02   -.3582950E-03
   .1740000E+02   -.3450947E-03
   .1745000E+02   -.3577838E-03
   .1750000E+02   -.5369237E-03
   .1755000E+02   -.1033052E-03
   .1760000E+02    .3643260E-03
   .1765000E+02    .9596911E-04
   .1770000E+02   -.3779797E-03
   .1775000E+02   -.1087858E-02
   .1780000E+02   -.1685909E-02
   .1785000E+02   -.1860743E-02
   .1790000E+02   -.1870087E-02
   .1795000E+02   -.1758675E-02
   .1800000E+02   -.1344647E-02
   .1805000E+02   -.6272682E-03
   .1810000E+02    .1402568E-03
   .1815000E+02    .6479638E-03
   .1820000E+02    .6744835E-03
   .1825000E+02    .3013756E-03
   .1830000E+02    .3334470E-03
   .1835000E+02    .6556684E-03
   .1840000E+02    .7282190E-03
   .1845000E+02    .8237491E-03
   .1850000E+02    .8629845E-03
   .1855000E+02    .8852505E-03
   .1860000E+02    .1024989E-02
   .1865000E+02    .9828657E-03
   .1870000E+02    .8316256E-03
   .1875000E+02    .5353561E-03
   .1880000E+02   -.1101263E-04
   .1885000E+02   -.3589611E-03
   .1890000E+02   -.5553787E-03
   .1895000E+02   -.6166233E-03
   .1900000E+02   -.3674366E-03
   .1905000E+02   -.1223726E-03
   .1910000E+02   -.2356792E-03
   .1915000E+02   -.3599905E-03
   .1920000E+02   -.4873149E-03
   .1925000E+02   -.5821830E-03
   .1930000E+02   -.4928958E-03
   .1935000E+02   -.7505337E-04
   .1940000E+02    .4790725E-03
   .1945000E+02    .6072889E-03
   .1950000E+02    .2617836E-03
   .1955000E+02    .1974667E-03
   .1960000E+02    .3622607E-03
   .1965000E+02    .2887660E-03
   .1970000E+02    .4498107E-03
   .1975000E+02    .7517941E-03
   .1980000E+02    .7994054E-03
   .1985000E+02    .9648886E-03
   .1990000E+02    .9707313E-03
   .1995000E+02    .1023022E-02
   .2000000E+02    .1049486E-02
   .2005000E+02    .9456033E-03
   .2010000E+02    .7234544E-03
   .2015000E+02    .5791442E-03
   .2020000E+02    .5216326E-03
   .2025000E+02    .4644161E-03
   .2030000E+02    .3963706E-03
   .2035000E+02    .1300610E-03
   .2040000E+02   -.6529264E-04
   .2045000E+02   -.1557122E-03
   .2050000E+02   -.8156938E-04
   .2055000E+02   -.2855964E-04
   .2060000E+02    .7041685E-04
   .2065000E+02    .3190914E-03
   .2070000E+02    .3058628E-03
   .2075000E+02    .2122486E-03
   .2080000E+02    .2631431E-03
   .2085000E+02    .4127413E-03
   .2090000E+02    .5292312E-03
   .2095000E+02    .4814301E-03
   .2100000E+02    .4503530E-03
   .2105000E+02    .3052602E-03
   .2110000E+02    .2296397E-03
   .2115000E+02    .2473445E-03
   .2120000E+02    .2842408E-03
   .2125000E+02    .3572540E-03
   .2130000E+02    .4301490E-03
   .2135000E+02    .4742469E-03
   .2140000E+02    .4425100E-03
   .2145000E+02    .4308498E-03
   .2150000E+02    .4244022E-03
   .2155000E+02    .2666785E-03
   .2160000E+02    .8028274E-04
   .2165000E+02   -.1415160E-03
   .2170000E+02   -.1734672E-03
   .2175000E+02   -.2335550E-03
   .2180000E+02   -.3500146E-03
   .2185000E+02   -.1679994E-03
   .2190000E+02    .4578833E-04
   .2195000E+02    .1446299E-03
   .2200000E+02    .1380782E-03
   .2205000E+02    .8676327E-04
   .2210000E+02    .8738522E-05
   .2215000E+02    .2304857E-04
   .2220000E+02   -.1256751E-04
   .2225000E+02    .6353363E-04
   .2230000E+02    .6833776E-04
   .2235000E+02    .9754930E-04
   .2240000E+02   -.7874358E-04
   .2245000E+02   -.5683250E-04
   .2250000E+02   -.1377729E-03
   .2255000E+02   -.1086958E-03
   .2260000E+02   -.5159648E-04
   .2265000E+02    .7006065E-04
   .2270000E+02    .7567015E-04
   .2275000E+02    .3336122E-04
   .2280000E+02   -.2980854E-04
   .2285000E+02   -.4216656E-04
   .2290000E+02   -.1402017E-03
   .2295000E+02   -.1701444E-03
   .2300000E+02   -.2528941E-03
   .2305000E+02   -.3432574E-03
   .2310000E+02   -.3672778E-03
   .2315000E+02   -.2839287E-03
   .2320000E+02   -.1809807E-03
   .2325000E+02   -.1884633E-03
   .2330000E+02   -.8833969E-04
   .2335000E+02   -.7998255E-05
   .2340000E+02    .3077391E-04
   .2345000E+02    .1572045E-03
   .2350000E+02   -.1939514E-04
   .2355000E+02    .1213723E-03
   .2360000E+02    .3978334E-03
   .2365000E+02    .9115856E-04
   .2370000E+02    .1342246E-03
   .2375000E+02    .2151591E-03
   .2380000E+02    .1802441E-03
   .2385000E+02    .1422391E-03
   .2390000E+02    .1291676E-03
   .2395000E+02    .2552714E-03
   .2400000E+02    .2543491E-03
   .2405000E+02    .1982052E-03
   .2410000E+02    .1392209E-03
   .2415000E+02    .8586688E-04
   .2420000E+02    .1993609E-03
   .2425000E+02    .6246083E-04
   .2430000E+02    .1804493E-04
   .2435000E+02   -.3233736E-05
   .2440000E+02   -.4081970E-04
   .2445000E+02    .8808061E-06
   .2450000E+02   -.4753399E-04
   .2455000E+02   -.2077237E-03
   .2460000E+02   -.1311700E-03
   .2465000E+02   -.2838743E-03
   .2470000E+02   -.3943705E-03
   .2475000E+02   -.4185295E-03
   .2480000E+02   -.5943711E-03
   .2485000E+02   -.6805871E-03
   .2490000E+02   -.7854276E-03
   .2495000E+02   -.8393240E-03
